% ./projectseries.x -T0 0 -T1 400 -bd UBbasis/ -Nb 4 -d data/uUB3 -ul uUB3 -o uUB3.asc 
% forcing dissipation energy
3.04371 3.0477 0.385902
3.04376 3.04692 0.385882
3.04381 3.04654 0.385866
3.04386 3.04639 0.385852
3.04393 3.04636 0.38584
3.04403 3.04635 0.385831
3.04413 3.04629 0.385825
3.04423 3.04618 0.385822
3.04431 3.04606 0.385821
3.04439 3.04594 0.385821
3.04448 3.04587 0.38582
3.0446 3.04584 0.385816
3.04475 3.04583 0.385809
3.04493 3.04582 0.385796
3.04513 3.0458 0.385779
3.04535 3.04574 0.385757
3.04557 3.04565 0.385733
3.04579 3.04551 0.385709
3.046 3.04534 0.385685
3.04619 3.04515 0.385666
3.04636 3.04497 0.385651
3.04651 3.04482 0.385644
3.04665 3.04472 0.385644
3.04678 3.04469 0.385654
3.04693 3.04475 0.385673
3.04709 3.04489 0.385703
3.04727 3.04511 0.385744
3.04748 3.04541 0.385798
3.0477 3.04579 0.385864
3.04793 3.04624 0.385942
3.04817 3.04676 0.386033
3.04841 3.04735 0.386135
3.04864 3.04801 0.386248
3.04887 3.04874 0.38637
3.0491 3.04953 0.386499
3.04932 3.05038 0.386633
3.04955 3.05128 0.386769
3.04977 3.0522 0.386906
3.05 3.05314 0.387039
3.05021 3.05406 0.387166
3.05041 3.05495 0.387285
3.05058 3.05577 0.387393
3.05071 3.0565 0.387487
3.05078 3.0571 0.387566
3.05079 3.05757 0.387626
3.05073 3.05787 0.387665
3.05058 3.058 0.387682
3.05036 3.05795 0.387674
3.05004 3.05771 0.38764
3.04964 3.05727 0.387578
3.04915 3.05662 0.387486
3.04858 3.05575 0.387364
3.04792 3.05465 0.387212
3.04717 3.05331 0.387029
3.04633 3.05172 0.386815
3.0454 3.04989 0.386571
3.04438 3.04781 0.386298
3.04327 3.0455 0.385998
3.04207 3.04296 0.385673
3.0408 3.04023 0.385325
3.03946 3.03732 0.384957
3.03807 3.03425 0.384572
3.03665 3.03107 0.384175
3.0352 3.0278 0.383768
3.03375 3.02448 0.383358
3.03232 3.02114 0.382948
3.03093 3.01782 0.382546
3.02959 3.01457 0.382156
3.02831 3.01142 0.381787
3.02714 3.00843 0.381444
3.02607 3.00566 0.381135
3.02513 3.00316 0.380867
3.02434 3.001 0.380647
3.02373 2.99924 0.380483
3.02332 2.99795 0.380381
3.02313 2.99718 0.380346
3.02317 2.99698 0.380385
3.02347 2.99741 0.380502
3.02404 2.99849 0.380701
3.02489 3.00025 0.380983
3.02602 3.00271 0.38135
3.02743 3.00587 0.3818
3.02911 3.00972 0.382333
3.03107 3.01424 0.382944
3.03327 3.0194 0.383628
3.03571 3.02516 0.384377
3.03836 3.03144 0.385184
3.0412 3.03817 0.386038
3.04419 3.04526 0.386928
3.0473 3.0526 0.387843
3.05049 3.0601 0.388771
3.05371 3.06762 0.389698
3.05692 3.07506 0.390612
3.06007 3.0823 0.3915
3.06311 3.08922 0.39235
3.06599 3.09572 0.393152
3.06866 3.10171 0.393893
3.07108 3.10708 0.394563
3.0732 3.11177 0.395155
3.07498 3.11571 0.395659
3.07638 3.11884 0.396069
3.07738 3.12112 0.396377
3.07795 3.12251 0.39658
3.07805 3.123 0.396671
3.07766 3.12256 0.396647
3.07678 3.12118 0.396504
3.07537 3.11887 0.396239
3.07343 3.11561 0.395848
3.07095 3.11142 0.395328
3.06792 3.10628 0.394674
3.06434 3.1002 0.393883
3.06022 3.09317 0.392949
3.05554 3.08515 0.391867
3.05033 3.07612 0.39063
3.04457 3.06602 0.389231
3.03828 3.0548 0.387661
3.03147 3.04235 0.385913
3.02414 3.02859 0.383979
3.01633 3.01339 0.381851
3.00803 2.99663 0.379523
2.99929 2.9782 0.376993
2.99013 2.95799 0.374264
2.98059 2.93593 0.371342
2.97072 2.91204 0.368246
2.96056 2.88638 0.365
2.9502 2.85915 0.361642
2.93972 2.83066 0.358223
2.92922 2.80135 0.354808
2.91885 2.77178 0.351476
2.90876 2.74267 0.348321
2.89916 2.71479 0.345449
2.89026 2.68901 0.342978
2.88229 2.66622 0.341032
2.87549 2.64726 0.339733
2.87004 2.63292 0.339196
2.86605 2.62386 0.339509
2.86354 2.62059 0.340729
2.86245 2.62345 0.342863
2.86265 2.63259 0.345867
2.86403 2.648 0.349646
2.86653 2.66944 0.354062
2.87024 2.69646 0.358949
2.87532 2.72829 0.364134
2.88198 2.76389 0.369449
2.8904 2.80194 0.374746
2.90062 2.84102 0.379905
2.91253 2.87971 0.38483
2.92577 2.91674 0.389454
2.93985 2.95114 0.393731
2.95414 2.98219 0.397631
2.968 3.00945 0.401137
2.9808 3.03269 0.404239
2.99205 3.05178 0.40693
3.00134 3.06672 0.40921
3.00843 3.07753 0.411077
3.01315 3.0843 0.412536
3.01545 3.08713 0.413592
3.01533 3.08615 0.414253
3.01284 3.08154 0.414531
3.00804 3.07348 0.414439
3.00104 3.06218 0.413993
2.99197 3.04792 0.413212
2.98099 3.031 0.412115
2.96826 3.01177 0.410725
2.95396 2.99068 0.409064
2.93829 2.96824 0.407158
2.92144 2.94504 0.405033
2.90359 2.92177 0.402715
2.88492 2.89919 0.40023
2.86559 2.87812 0.397599
2.84579 2.85942 0.394837
2.82567 2.84389 0.391944
2.80543 2.83228 0.388899
2.78528 2.82509 0.385645
2.76541 2.82243 0.382077
2.74606 2.82376 0.378028
2.72741 2.82752 0.373253
2.70964 2.83069 0.367448
2.69292 2.82862 0.360306
2.67759 2.81555 0.351635
2.66413 2.78652 0.341513
2.6532 2.74002 0.330414
2.64534 2.67945 0.319152
2.64081 2.6112 0.308635
2.63947 2.54018 0.299554
2.64094 2.46864 0.292249
2.64474 2.40232 0.286781
2.65023 2.35076 0.283033
2.65666 2.31733 0.280811
2.66306 2.2995 0.279888
2.6682 2.29404 0.279985
2.67046 2.2976 0.280764
2.66794 2.30659 0.281861
2.65887 2.3192 0.282945
2.64233 2.33496 0.283811
2.61853 2.34806 0.284491
2.58872 2.34975 0.28528
2.55468 2.33755 0.28658
2.51837 2.31764 0.288687
2.48164 2.29934 0.291683
2.44607 2.28953 0.295468
2.41287 2.29154 0.299832
2.38269 2.30666 0.304498
2.35575 2.33517 0.309148
2.33199 2.37612 0.313448
2.31136 2.42646 0.317096
2.29418 2.48056 0.3199
2.28145 2.53176 0.321846
2.27529 2.57597 0.323102
2.27912 2.61409 0.323896
2.29727 2.65071 0.324359
2.33334 2.69072 0.324418
2.38805 2.73521 0.323862
2.45874 2.77749 0.322521
2.53992 2.80558 0.320385
2.62353 2.8132 0.317532
2.70178 2.80641 0.313962
2.77104 2.79577 0.309658
2.83081 2.78544 0.304769
2.88225 2.77849 0.299609
2.92915 2.77818 0.294578
2.9761 2.7837 0.290154
3.02308 2.78908 0.286814
3.06319 2.78656 0.284936
3.08555 2.77046 0.284698
3.08046 2.73733 0.286001
3.04359 2.68685 0.288419
2.97857 2.62469 0.291264
2.89573 2.56195 0.293792
2.80693 2.50987 0.295477
2.72036 2.48204 0.296059
2.63926 2.48849 0.295316
2.56368 2.48571 0.293121
2.49268 2.43685 0.289731
2.42534 2.36672 0.285468
2.36064 2.30594 0.280421
2.29857 2.25852 0.274606
2.2416 2.21159 0.268216
2.19491 2.15663 0.261622
2.16483 2.09689 0.255206
2.15359 2.04377 0.249301
2.15637 2.0051 0.243966
2.16603 1.97516 0.23904
2.17499 1.94725 0.234555
2.17887 1.92668 0.230614
2.17883 1.91465 0.227211
2.17755 1.9065 0.224291
2.17609 1.90038 0.221785
2.17409 1.89558 0.219607
2.17106 1.88998 0.217643
2.16683 1.88231 0.215796
2.16131 1.87306 0.214012
2.15432 1.86267 0.212265
2.14563 1.8507 0.210536
2.13512 1.83696 0.208792
2.12293 1.82303 0.206965
2.10953 1.81144 0.204939
2.09568 1.80262 0.2026
2.08204 1.79366 0.1999
2.06885 1.78175 0.196897
2.05571 1.76722 0.193705
2.04181 1.75146 0.190406
2.02635 1.73348 0.187045
2.00884 1.71134 0.183716
1.989 1.68472 0.180595
1.96673 1.65519 0.177882
1.94219 1.62485 0.175731
1.91581 1.59523 0.174224
1.8882 1.5675 0.173374
1.86006 1.54347 0.173111
1.83218 1.52571 0.173276
1.80538 1.5153 0.173649
1.78042 1.51041 0.174021
1.75785 1.50754 0.174258
1.73792 1.50325 0.174316
1.72051 1.49528 0.174237
1.70519 1.48293 0.174109
1.69139 1.46684 0.174024
1.67848 1.44867 0.174049
1.66595 1.43057 0.174208
1.65344 1.41439 0.174486
1.6408 1.40096 0.174854
1.62805 1.39013 0.175283
1.61534 1.38124 0.175764
1.60286 1.37364 0.176298
1.59079 1.36685 0.176892
1.5793 1.36071 0.177553
1.56848 1.35521 0.178275
1.55838 1.35049 0.179044
1.54901 1.34665 0.179836
1.54035 1.34372 0.180625
1.53235 1.34158 0.181382
1.52496 1.34002 0.182088
1.51812 1.33881 0.182729
1.51178 1.33774 0.183295
1.50586 1.33668 0.183786
1.50032 1.33555 0.184198
1.49511 1.33433 0.184535
1.49017 1.333 0.184795
1.48547 1.33157 0.18498
1.48095 1.33003 0.185091
1.47659 1.32839 0.185127
1.47234 1.32664 0.185088
1.46819 1.32476 0.184975
1.46409 1.32275 0.184788
1.46004 1.32061 0.18453
1.45601 1.31832 0.184199
1.45199 1.3159 0.183799
1.44797 1.31332 0.183331
1.44393 1.3106 0.182796
1.43987 1.30775 0.182196
1.43578 1.30475 0.181534
1.43165 1.30162 0.180812
1.42749 1.29836 0.180032
1.42328 1.29499 0.179196
1.41903 1.29149 0.178306
1.41474 1.28789 0.177364
1.4104 1.28419 0.176372
1.40601 1.2804 0.175333
1.40159 1.27651 0.17425
1.39712 1.27255 0.173123
1.39261 1.26851 0.171955
1.38807 1.26441 0.170748
1.38349 1.26025 0.169505
1.37887 1.25603 0.168227
1.37423 1.25177 0.166917
1.36956 1.24747 0.165576
1.36487 1.24314 0.164206
1.36016 1.23878 0.16281
1.35543 1.23441 0.161388
1.35068 1.23001 0.159944
1.34593 1.22561 0.158477
1.34117 1.22121 0.156992
1.3364 1.21681 0.155488
1.33163 1.21242 0.153967
1.32687 1.20804 0.152432
1.3221 1.20368 0.150883
1.31735 1.19934 0.149321
1.3126 1.19502 0.14775
1.30787 1.19073 0.146169
1.30315 1.18648 0.14458
1.29845 1.18226 0.142984
1.29377 1.17808 0.141382
1.28912 1.17394 0.139776
1.28448 1.16985 0.138167
1.27988 1.16581 0.136556
1.2753 1.16181 0.134943
1.27076 1.15786 0.133329
1.26624 1.15397 0.131717
1.26176 1.15014 0.130106
1.25732 1.14636 0.128497
1.25291 1.14264 0.126891
1.24854 1.13898 0.125289
1.24421 1.13537 0.123692
1.23992 1.13183 0.1221
1.23568 1.12835 0.120514
1.23148 1.12494 0.118935
1.22732 1.12159 0.117363
1.22321 1.1183 0.115799
1.21914 1.11507 0.114243
1.21512 1.11191 0.112695
1.21115 1.10881 0.111157
1.20722 1.10577 0.109629
1.20335 1.1028 0.108111
1.19952 1.0999 0.106603
1.19575 1.09705 0.105107
1.19202 1.09427 0.103621
1.18834 1.09155 0.102147
1.18471 1.0889 0.100686
1.18114 1.0863 0.0992358
1.17761 1.08377 0.0977985
1.17414 1.0813 0.096374
1.17071 1.07888 0.0949623
1.16734 1.07653 0.0935638
1.16402 1.07423 0.0921786
1.16075 1.07199 0.090807
1.15753 1.06981 0.0894489
1.15435 1.06768 0.0881047
1.15123 1.06561 0.0867745
1.14816 1.06359 0.0854583
1.14514 1.06162 0.0841562
1.14217 1.05971 0.0828684
1.13925 1.05785 0.0815949
1.13638 1.05604 0.0803358
1.13355 1.05428 0.0790911
1.13078 1.05256 0.077861
1.12805 1.0509 0.0766453
1.12537 1.04928 0.0754442
1.12274 1.0477 0.0742576
1.12015 1.04617 0.0730856
1.11761 1.04469 0.0719282
1.11511 1.04324 0.0707853
1.11266 1.04184 0.0696569
1.11026 1.04048 0.068543
1.1079 1.03916 0.0674436
1.10558 1.03788 0.0663587
1.10331 1.03663 0.065288
1.10108 1.03543 0.0642317
1.09889 1.03426 0.0631897
1.09674 1.03312 0.0621619
1.09464 1.03202 0.0611482
